Frame     Processing Time (ms)
1         195.06              
2         225.46              
3         252.49              
4         276.93              
5         297.44              
6         299.05              
7         293.02              
8         277.14              
9         252.28              
10        240.79              
11        222.83              
12        201.86              
13        200.83              
14        184.10              
15        166.98              
16        152.15              
17        135.13              
18        122.86              
19        104.98              
20        92.19               
21        71.68               
22        56.26               
23        38.45               
24        24.77               
25        19.13               
26        17.73               
27        17.60               
28        18.06               
29        18.27               
30        18.02               
31        18.34               
32        17.93               
33        18.12               
34        18.44               
35        18.09               
36        17.75               
37        18.07               
38        17.81               
39        18.21               
40        18.28               
41        17.75               
42        17.77               
43        18.23               
44        18.00               
45        17.95               
46        17.86               
47        17.65               
48        17.88               
49        17.69               
50        17.36               
51        17.50               
52        19.29               
53        18.39               
54        17.84               
55        17.56               
56        17.23               
57        18.14               
58        18.54               
59        17.86               
60        17.71               
61        18.51               
62        18.53               
63        18.15               
64        18.33               
65        18.50               
66        18.04               
67        17.85               
68        18.26               
69        17.65               
70        17.79               
71        18.62               
72        17.66               
73        17.46               
74        17.69               
75        17.72               
76        17.28               
77        17.19               
78        18.93               
79        28.28               
80        17.64               
81        17.34               
82        19.11               
83        19.18               
84        20.74               
85        19.15               
86        18.96               
87        18.86               
88        19.04               
89        18.78               
90        18.76               
91        19.98               
92        19.18               
93        18.69               
94        18.83               
95        18.62               
96        18.46               
97        18.20               
98        18.28               
99        18.68               
100       18.67               
101       18.94               
102       23.42               
103       19.78               
104       19.42               
105       18.94               
106       18.57               
107       21.46               
108       42.85               
109       40.60               
110       20.04               
111       37.40               
112       50.62               
113       27.66               
114       19.42               
115       35.23               
116       29.45               
117       19.30               
118       48.80               
119       28.47               
120       20.75               
121       44.41               
122       37.44               
123       20.25               
124       39.95               
125       40.84               
126       28.97               
127       20.35               
128       42.46               
129       27.36               
130       19.78               
131       52.95               
132       32.92               
133       20.56               
134       51.38               
135       40.42               
136       23.10               
137       42.23               
138       25.42               
139       29.92               
140       39.91               
141       19.96               
142       24.61               
143       42.16               
144       29.03               
145       19.78               
146       37.76               
147       29.66               
148       19.45               
149       18.83               
150       31.40               
151       20.10               
152       18.84               
153       35.20               
154       21.10               
155       19.07               
156       36.69               
157       20.53               
158       20.23               
159       37.52               
160       20.06               
161       19.71               
162       41.10               
163       21.14               
164       19.43               
165       38.90               
166       40.55               
167       19.77               
168       46.42               
169       33.01               
170       20.71               
171       19.66               
172       40.30               
173       20.62               
174       19.79               
175       44.70               
176       26.07               
177       20.05               
178       39.60               
179       21.30               
180       19.91               
181       50.48               
182       27.77               
183       24.68               
184       42.92               
185       26.04               
186       20.09               
187       43.95               
188       41.44               
189       21.00               
190       36.31               
191       49.94               
192       29.75               
193       19.05               
194       46.14               
195       37.74               
196       19.60               
197       51.97               
198       40.88               
199       23.27               
200       49.05               
201       42.96               
202       26.32               
203       49.15               
204       45.53               
205       30.34               
206       20.31               
207       36.78               
208       19.31               
209       25.37               
210       38.69               
211       31.18               
212       19.64               
213       44.08               
214       41.81               
215       20.12               
216       47.60               
217       44.35               
218       28.85               
219       36.73               
220       37.73               
221       20.82               
222       41.25               
223       45.80               
224       31.52               
225       20.51               
226       42.01               
227       21.42               
228       20.06               
229       42.20               
230       24.51               
231       20.89               
232       47.63               
233       32.20               
234       20.31               
235       39.77               
236       31.79               
237       20.55               
238       45.42               
239       30.00               
240       20.18               
241       47.06               
242       25.36               
243       19.53               
244       46.35               
245       25.52               
246       19.84               
247       49.15               
248       38.48               
249       21.84               
250       45.30               
251       20.52               
252       46.59               
253       63.06               
254       52.13               
255       29.74               
256       52.57               
257       46.94               
258       20.50               
259       43.45               
260       35.32               
261       19.42               
262       41.92               
263       30.82               
264       20.20               
265       42.43               
266       41.47               
267       23.30               
268       49.16               
269       45.40               
270       23.04               
271       45.26               
272       38.18               
273       30.47               
274       22.47               
275       46.82               
276       39.77               
277       22.35               
278       52.94               
279       29.60               
280       20.01               
281       44.41               
282       33.54               
283       20.53               
284       38.81               
285       23.88               
286       20.40               
287       45.19               
288       42.53               
289       21.87               
290       51.56               
291       43.76               
292       37.54               
293       50.27               
294       36.76               
295       29.44               
296       44.88               
297       62.51               
298       48.73               
299       56.08               
300       58.68               
301       40.66               
302       62.11               
303       72.00               
304       59.60               
305       69.45               
306       74.66               
307       53.74               
308       65.21               
309       79.62               
310       55.05               
311       66.01               
312       78.11               
313       58.13               
314       71.84               
315       73.19               
316       63.27               
317       73.64               
318       84.01               
319       67.98               
320       79.82               
321       87.13               
322       67.28               
323       81.23               
324       86.49               
325       62.75               
326       77.64               
327       78.50               
328       60.18               
329       42.86               
330       57.00               
331       60.57               
332       39.66               
333       37.72               
334       53.22               
335       34.22               
336       19.90               
337       48.59               
338       39.21               
339       23.19               
340       51.63               
341       34.02               
342       26.96               
343       55.01               
344       47.88               
345       21.91               
346       43.74               
347       41.38               
348       20.30               
349       37.73               
350       37.45               
351       34.17               
352       44.42               
353       44.32               
354       34.08               
355       19.22               
356       55.31               
357       32.88               
358       20.21               
359       47.85               
360       20.29               
361       20.24               
362       50.76               
363       40.13               
364       21.59               
365       50.49               
366       38.08               
367       23.09               
368       46.94               
369       41.76               
370       21.81               
371       19.57               
372       46.68               
373       20.69               
374       47.57               
375       52.99               
376       39.45               
377       20.75               
378       53.32               
379       38.35               
380       21.26               
381       51.13               
382       33.10               
383       28.75               
384       42.53               
385       46.65               
386       29.50               
387       20.83               
388       43.88               
389       36.55               
390       20.02               
391       47.17               
392       29.46               
393       20.40               
394       49.36               
395       34.69               
396       21.25               
397       43.43               
398       40.85               
399       25.33               
400       41.16               
401       46.33               
402       28.73               
403       19.64               
404       44.28               
405       24.61               
406       20.01               
407       48.16               
408       34.56               
409       19.67               
410       45.36               
411       37.99               
412       20.73               
413       47.46               
414       41.77               
415       23.11               
416       42.06               
417       46.45               
418       33.91               
419       19.67               
420       38.44               
421       23.09               
422       20.07               
423       39.08               
424       30.42               
425       19.06               
426       43.95               
427       31.12               
428       19.74               
429       52.80               
430       38.65               
431       21.21               
432       50.00               
433       48.25               
434       20.78               
435       43.59               
436       40.44               
437       21.36               
438       39.87               
439       54.54               
440       38.92               
441       23.63               
442       42.52               
443       39.15               
444       26.76               
445       19.67               
446       41.19               
447       24.10               
448       19.77               
449       48.88               
450       33.34               
451       20.42               
452       50.19               
453       29.21               
454       20.59               
455       51.28               
456       67.72               
457       73.86               
458       84.48               
459       93.79               
460       110.65              
461       115.43              
462       129.95              
463       146.65              
464       149.74              
465       170.82              
466       173.33              
467       177.93              
468       199.94              
469       209.34              
470       236.05              
471       236.73              
472       247.28              
473       255.85              
474       274.99              
475       292.16              
476       289.71              
477       311.40              
478       304.19              
479       313.24              
480       304.59              
481       286.33              
482       268.78              
483       276.55              
484       274.05              
485       256.41              
486       243.18              
487       227.90              
488       234.34              
489       217.14              
490       205.09              
491       187.02              
492       196.56              
493       191.00              
494       178.40              
495       155.36              
496       168.47              
497       160.67              
498       150.05              
499       117.33              
500       112.23              
501       73.13               
502       83.92               
503       88.20               
504       65.14               
505       89.14               
506       79.71               
507       62.36               
508       37.81               
509       43.46               
510       52.35               
511       34.70               
512       19.95               
513       35.00               
514       22.90               
515       20.57               
516       41.07               
517       29.37               
518       20.08               
519       36.73               
520       54.69               
521       36.87               
522       24.39               
523       40.58               
524       35.91               
525       21.53               
526       53.17               
527       45.16               
528       22.55               
529       44.71               
530       37.83               
531       31.07               
532       21.06               
533       50.38               
534       32.14               
535       20.71               
536       49.37               
537       45.23               
538       20.73               
539       39.27               
540       38.26               
541       28.45               
542       19.92               
543       48.79               
544       31.89               
545       19.87               
546       49.04               
547       31.89               
548       20.52               
549       51.26               
550       42.28               
551       22.70               
552       51.42               
553       58.11               
554       43.58               
555       43.17               
556       58.08               
557       51.20               
558       44.97               
559       68.23               
560       50.91               
561       51.78               
562       74.56               
563       57.59               
564       65.26               
565       79.64               
566       62.31               
567       55.04               
568       70.60               
569       67.35               
570       47.53               
571       62.20               
572       61.85               
573       47.65               
574       63.03               
575       58.27               
576       45.63               
577       47.81               
578       54.00               
579       50.58               
580       49.66               
581       69.08               
582       58.86               
583       44.67               
584       63.18               
585       46.20               
586       25.55               
587       55.83               
588       49.22               
589       34.58               
590       47.44               
591       48.08               
592       38.60               
593       36.63               
594       57.48               
595       39.92               
596       28.07               
597       52.56               
598       45.75               
599       33.45               
600       50.77               
601       62.96               
602       33.44               
603       37.68               
604       53.60               
605       40.63               
606       20.33               
607       42.46               
608       35.26               
609       20.50               
610       53.26               
611       37.74               
612       20.47               
613       53.58               
614       38.61               
615       21.74               
616       55.01               
617       53.56               
618       46.03               
619       57.09               
620       66.15               
621       45.51               
622       66.86               
623       70.99               
624       43.49               
625       62.81               
626       73.97               
627       56.10               
628       76.57               
629       78.47               
630       66.37               
631       67.61               
632       70.71               
633       68.28               
634       71.43               
635       79.96               
636       70.47               
637       91.58               
638       91.58               
639       69.50               
640       86.11               
641       92.48               
642       78.99               
643       98.47               
644       105.73              
